;variety;LA;TDW;ADW;RDW;LWR;LAR;SLA;SR;SNQ;LASNQ;TNQ;SNU;NUtE_TOT;NUtE_AER;AUC_L1_L4;AUC_L1_L2;AUC_L2_L3;AUC_L3_L4;Sp_L1_L4;Sp_L1_L2;Sp_L2_L3;Sp_L3_L4;SCA
NAVIG_105;NAVIG_105;1229.267904;5.499167264;5.199261116;0.299593881;0.951111836;240.8208616;252.3514169;22.23926506;0.283025226;4537.891608;0.291457048;1.295167671;18.73320935;17.77353423;9738.572747;699.4050192;2937.979148;6101.934876;0.586068883;0.175474502;0.419958189;1.084187077;0.000530074
NAVIG_108;NAVIG_108;1223.019794;5.575494149;5.254388441;0.320807898;0.944944548;231.6757099;245.0268915;18.96450375;0.268045139;4652.879594;0.277066994;1.040435689;19.72665385;18.61640871;9489.351221;690.7431213;2884.569663;5911.911916;0.564499958;0.171930802;0.407109723;1.038770673;0.000537172
NAVIG_109;NAVIG_109;919.4289708;4.215225686;3.951505688;0.26339984;0.941173844;225.8863042;239.6193371;17.76289285;0.200407844;4505.908439;0.207827783;0.966481643;19.53878906;18.37625212;6568.400549;505.5307036;2032.224808;4031.391333;0.379408227;0.120095674;0.276807178;0.690937448;0.000537706
NAVIG_110;NAVIG_110;935.584942;4.412059382;4.133394163;0.27835548;0.932845433;260.4580568;281.3183181;16.58210947;0.213052445;5316.428473;0.220887837;0.916223676;19.66714621;18.33380878;7530.52308;555.8960513;2296.183215;4674.783173;0.44574035;0.135991358;0.320929272;0.820561296;0.000543314
NAVIG_111;NAVIG_111;1043.56738;4.918151989;4.675254829;0.242603708;0.957672041;231.069486;240.3831011;26.07036035;0.247406175;4336.103542;0.254238575;1.517423287;18.66294076;17.82341753;7523.493477;513.4125581;2236.444953;4771.509446;0.466300909;0.134400883;0.330191851;0.870963383;0.000732032
NAVIG_113;NAVIG_113;932.8554412;4.479286153;4.185661287;0.293324961;0.933849643;228.8329466;244.8629677;15.497914;0.218706396;4527.093471;0.226960259;0.873523689;19.29190014;17.99691413;7262.337967;545.9951399;2228.384881;4487.267834;0.425144499;0.132162039;0.308365374;0.77816647;0.000571109
NAVIG_114;NAVIG_114;1012.495187;4.623290694;4.346973312;0.275984402;0.944876448;246.534039;260.6130565;18.11847354;0.22262094;4905.178885;0.230391975;0.999394007;19.51870077;18.41603026;7671.473237;549.8048137;2321.703695;4791.658939;0.459691793;0.138431627;0.330206544;0.848308768;0.000623502
NAVIG_115;NAVIG_115;940.3024865;4.267527314;4.039051106;0.228117728;0.958706747;256.4185855;266.8285733;24.50883208;0.188464499;5507.803904;0.194899316;1.235946846;21.23679725;20.29848469;10347.57566;769.7892194;3166.646842;6402.595598;0.604791739;0.188308421;0.439423286;1.105758115;0.000437849
NAVIG_116;NAVIG_116;1046.837894;5.206098383;4.898249459;0.307514527;0.94412362;207.4356235;219.7902207;18.29041467;0.243844938;4353.067964;0.252499042;0.957262392;20.23399403;19.09136577;9043.45653;721.1132916;2835.712326;5478.325124;0.505037812;0.166374497;0.373526474;0.908538816;0.000582402
NAVIG_117;NAVIG_117;1038.998645;5.235650287;4.940627449;0.29470919;0.945834306;208.7923539;220.8000102;18.90508188;0.254834564;4091.786804;0.263127425;1.069295382;19.23409908;18.15974181;9035.968545;672.5226827;2770.479378;5586.720451;0.52861358;0.164533162;0.384040403;0.96652235;0.000591688
NAVIG_118;NAVIG_118;969.0021724;4.544630172;4.256286659;0.288032035;0.939794148;230.8988968;244.9089049;18.1211251;0.227397876;4353.555408;0.235505811;1.059824501;18.61758169;17.47213887;7877.820978;668.527203;2518.906956;4691.133115;0.42307169;0.146788882;0.318331748;0.749318119;0.000576694
NAVIG_120;NAVIG_120;1355.435857;6.086902786;5.754400632;0.332200087;0.946589486;229.6695366;242.3686647;19.67994842;0.307590142;4417.743926;0.31693204;1.129211224;18.98868941;17.94184843;10832.99721;882.376448;3415.357971;6532.113522;0.597418902;0.199947338;0.444088817;1.070090865;0.00055316
NAVIG_124;NAVIG_124;876.8041768;3.935427924;3.706400244;0.228696723;0.950680931;259.5592573;272.4029984;21.34548058;0.188495334;4966.122613;0.194941993;1.229066252;18.97011738;17.9957874;8248.482036;593.2129568;2499.024063;5147.939226;0.492999941;0.148989357;0.35459334;0.908892376;0.000479929
NAVIG_126;NAVIG_126;733.0715312;2.823367436;2.706703537;0.117295962;0.949530235;257.8761555;271.4961743;18.65264766;0.15589088;4912.094693;0.159091023;1.050633949;18.76691868;17.8639445;7153.834582;527.2121058;2189.101914;4446.516463;0.427022212;0.128432212;0.304707466;0.793015193;0.000437928
NAVIG_127;NAVIG_127;660.0821476;2.659120329;2.499131315;0.160622664;0.938749105;237.7043665;252.3785979;16.04219001;0.162075768;4364.976337;0.166488993;0.958196005;17.95235298;16.8668183;5866.17385;473.142248;1855.932609;3546.094895;0.326103424;0.108417703;0.241602001;0.587512993;0.000520834
NAVIG_128;NAVIG_128;1070.476516;4.610235671;4.425100119;0.185765662;0.955041364;262.6074217;275.3658273;20.1360622;0.267782673;4610.473765;0.272900048;1.209171004;16.83713015;16.15078866;8078.640162;648.3699369;2556.286569;4882.200737;0.44953818;0.150081053;0.3344471;0.807081176;0.000395443
NAVIG_129;NAVIG_129;721.7542342;3.412921528;3.209316936;0.204236748;0.943956162;235.1537852;248.2239498;17.60235377;0.180508224;4229.683023;0.186142705;1.048404447;18.0066565;17.01246444;7053.784587;570.4360559;2238.006257;4254.338176;0.390067669;0.131248836;0.291064933;0.698761808;0.000499196
NAVIG_131;NAVIG_131;312.1749778;0.803804901;0.812023196;-0.007588184;0.95190178;238.0806099;249.8580643;19.42161329;0.073009869;4456.65135;0.072713336;1.100840344;18.41622912;17.58222836;5272.595453;128.8454106;1010.074573;4141.892551;0.558274829;0.046596544;0.238126237;1.322104533;0.000341562
NAVIG_133;NAVIG_133;956.7983518;4.589980351;4.186375759;0.404236748;0.925550699;238.0557232;255.4249121;14.05158645;0.235200171;4580.074948;0.246434652;0.846287568;18.83246672;17.37873105;9064.215025;640.6887577;2733.279646;5699.242523;0.55727081;0.160790708;0.391846827;1.046510302;0.000519233
NAVIG_134;NAVIG_134;840.9328143;3.526000329;3.389131315;0.137502664;0.954479222;244.923223;256.7194116;20.34182859;0.214716503;4260.286319;0.218482368;1.210673436;16.89590335;16.19706404;8890.22998;617.9476055;2663.34726;5617.931016;0.553322195;0.156574644;0.386084317;1.045012412;0.00042101
NAVIG_135;NAVIG_135;852.6302482;4.138947877;3.813609093;0.32596926;0.93145593;228.0209116;243.3315676;14.72644528;0.197834238;4499.774617;0.206877299;0.840950826;19.77273577;18.39336571;9126.870876;622.8275978;2717.373176;5794.887183;0.574548399;0.159891204;0.398578487;1.089778103;0.000411167
NAVIG_136;NAVIG_136;588.5756309;2.065426962;1.934548836;0.131511898;0.941548822;268.552394;284.8399627;17.65854175;0.121856146;5496.513574;0.125454265;0.981232296;19.68985197;18.54451637;5601.236524;562.9860128;1930.372232;3116.874181;0.249012121;0.110861684;0.207950462;0.399797797;0.000462404
NAVIG_137;NAVIG_137;795.2395283;3.832921528;3.551669877;0.281883807;0.934312941;227.1046137;241.774173;15.26012262;0.212781891;4125.559275;0.22059049;0.921205344;17.82835351;16.66322289;7823.291705;610.3427972;2449.57615;4772.368659;0.445538385;0.143988759;0.327443053;0.80837415;0.000506202
NAVIG_138;NAVIG_138;818.3055816;4.133614543;3.893609093;0.240635926;0.94237733;221.6654333;234.4173969;16.73222543;0.225035076;3991.040697;0.231688803;0.98952762;17.90213758;16.89567832;11665.7379;828.2499317;3528.48201;7318.00186;0.713603721;0.208220505;0.504713018;1.33435612;0.000364133
NAVIG_139;NAVIG_139;988.6188143;5.137120329;4.758464648;0.379289331;0.935941236;230.4634943;244.9892109;15.60171651;0.211269636;4864.657541;0.221805528;0.84777673;21.71050022;20.274298;12801.79394;1005.195996;4020.37852;7785.215321;0.725434886;0.236861415;0.535771669;1.310285236;0.000388006
NAVIG_142;NAVIG_142;908.2161728;4.446243882;4.036695204;0.410181535;0.921623276;233.9535943;251.6196551;13.81135954;0.188725539;5145.904265;0.200126445;0.768780648;22.22061274;20.34871668;7512.503215;641.4134737;2432.246018;4447.839624;0.396417426;0.142167867;0.303219582;0.694631638;0.000605919
NAVIG_143;NAVIG_143;1262.620131;5.721452216;5.357667426;0.364417646;0.940181359;248.2773216;263.5382141;16.25881899;0.258973468;5010.070571;0.269092985;0.906098377;20.1926709;18.9824404;12762.59364;924.518171;3891.362388;7955.708987;0.768785725;0.229882886;0.549199244;1.426672886;0.000425394
NAVIG_144;NAVIG_144;969.6595283;3.903509763;3.651081642;0.253060278;0.938460624;257.4412628;273.7112185;16.22653908;0.201452064;4986.480042;0.208453604;0.940295929;18.89432015;17.73030278;7903.76984;590.5074807;2433.343682;4888.914579;0.466254918;0.143026915;0.335606387;0.860131489;0.000506916
NAVIG_145;NAVIG_145;988.4232071;3.25771056;3.18168986;0.076658133;0.959416259;289.811061;303.1254684;21.80242424;0.182777253;5658.099203;0.184839315;1.214697275;18.77439657;18.07582056;8294.934335;612.8756286;2542.49011;5149.343318;0.493925257;0.149442495;0.353628167;0.914983888;0.000367953
NAVIG_146;NAVIG_146;809.0015816;2.91028121;2.85227576;0.058635926;0.960854622;261.7340796;273.1714366;22.35473336;0.170776922;4816.619809;0.172334649;1.267645677;17.93707319;17.30588934;8190.604962;610.6803253;2520.38085;5068.539688;0.483743506;0.148234407;0.348166604;0.892484041;0.000408186
NAVIG_149;NAVIG_149;485.1586313;1.904109334;1.815898487;0.088842622;0.94719101;245.7343804;258.8164045;18.34155259;0.138389606;4185.364438;0.140793067;1.132690982;16.4889749;15.67327516;4991.771933;118.1834752;940.028917;3941.776622;0.535627882;0.042590832;0.224113466;1.275458172;0.000280719
NAVIG_151;NAVIG_151;980.5955312;5.109367436;4.821370204;0.288629295;0.944832786;221.5531578;233.8550278;17.25500263;0.287875248;3810.172729;0.295872724;1.051347733;16.92853939;16.03781777;13485.94148;1013.241636;4167.075902;8314.619844;0.790924784;0.245959667;0.573419206;1.450523448;0.000362111
NAVIG_152;NAVIG_152;1116.431703;6.626984831;6.20060195;0.427014037;0.940100246;212.5848177;225.1695441;16.43865411;0.329980908;3830.809704;0.341853194;0.973089137;18.18367874;17.10200014;11503.01773;873.0249453;3567.663531;7070.546335;0.66908172;0.210425122;0.487063312;1.223096084;0.000456698
NAVIG_153;NAVIG_153;929.5772855;4.462697209;4.085100119;0.3782272;0.927070624;230.350535;246.7930195;14.01505084;0.233461373;4186.753596;0.243967671;0.867411673;17.88494696;16.55316522;8362.382815;590.5987125;2521.402911;5258.598272;0.513961734;0.148313701;0.361419399;0.965188242;0.00048115
NAVIG_154;NAVIG_154;1302.406173;6.002910549;5.56836187;0.435181535;0.936278793;244.1140175;259.7372402;15.60991813;0.25234303;5157.311566;0.264443936;0.851500338;21.30070882;19.9071713;10338.38558;744.6635006;3140.583445;6462.134538;0.626882871;0.184946118;0.444711243;1.169277051;0.000550341
NAVIG_156;NAVIG_156;875.6442342;3.87762741;3.61755223;0.260707337;0.938496386;243.6554616;258.7531069;16.00380199;0.171077311;5199.13648;0.178292969;0.862640252;21.58612541;20.23732874;8956.921308;657.2950858;2740.22625;5568.395874;0.535381188;0.161289409;0.382895118;0.992596214;0.000435353
NAVIG_159;NAVIG_159;701.5914283;2.691683879;2.486016385;0.206298863;0.934585495;257.5757132;274.4436719;16.20985373;0.181154743;4381.2666;0.186846996;1.033896706;16.17208922;15.13151102;4480.800893;365.526306;1422.369664;2701.900824;0.24683004;0.082775815;0.183214468;0.444121833;0.000644533
NAVIG_160;NAVIG_160;1068.705328;4.770821017;4.49800076;0.273449713;0.944299664;245.035996;259.0662059;17.32378512;0.23197047;4768.468685;0.239543026;0.97351525;19.28979337;18.23005818;9117.720908;714.0542618;2859.549806;5552.333922;0.51757488;0.168209332;0.381253789;0.937020681;0.000461852
NAVIG_161;NAVIG_161;520.4263614;2.818003868;2.598146594;0.22048418;0.92964856;206.0314226;219.9860045;14.42294717;0.149821544;3899.450091;0.155911169;0.845940206;19.04745292;17.68597777;6919.645741;506.2175232;2112.425102;4309.220197;0.414822087;0.123985217;0.295354906;0.771697723;0.000489575
NAVIG_162;NAVIG_162;1260.886042;5.552963874;5.230857903;0.322735428;0.945765741;253.8698208;268.0397526;17.7908271;0.305808303;4436.329089;0.314760858;1.093519552;16.96814788;16.07627434;8784.6485;654.4832731;2703.717869;5434.664439;0.518630866;0.159178544;0.373642355;0.956042611;0.000574434
NAVIG_163;NAVIG_163;635.9788457;3.279841973;3.061316236;0.219156894;0.935971698;213.8185819;227.2054292;15.45760276;0.178352861;3947.313127;0.184405147;0.909446614;18.49645476;17.31359242;8948.608042;671.3134645;2761.537189;5523.974469;0.525482759;0.162599607;0.379804248;0.96619089;0.000407141
NAVIG_164;NAVIG_164;971.9056309;4.8005885;4.389933451;0.411288821;0.925464006;229.0450244;245.7479308;13.81240274;0.259946081;4162.103158;0.271377954;0.855804051;17.6947201;16.35210557;9271.625015;722.9849334;2904.433367;5653.981437;0.52796496;0.171039057;0.38879304;0.956457638;0.000445511
NAVIG_166;NAVIG_166;933.7036015;5.791527021;5.416164975;0.375995603;0.940135567;204.537139;216.3657947;16.27892054;0.26123429;4005.426256;0.271677962;0.902200924;20.31597689;19.08645127;11031.44745;757.9292034;3293.448115;6989.066031;0.691468771;0.194027574;0.4813884;1.308063959;0.000536071
NAVIG_167;NAVIG_167;939.7295533;4.243558879;3.951641385;0.292548863;0.937181334;241.6483326;256.9010078;15.69928527;0.237899131;4272.632917;0.246006384;0.968561187;17.19979517;16.1320482;7869.209428;601.4386061;2443.904214;4832.86251;0.455956422;0.143628705;0.331626092;0.834217349;0.000534822
NAVIG_170;NAVIG_170;616.0902463;3.338534654;3.109933451;0.229234974;0.936772397;213.6883264;227.0362253;16.10723305;0.21291072;3603.535378;0.219245084;1.019565795;16.42950716;15.40439291;8539.352421;633.6153409;2622.314234;5293.197568;0.506627035;0.154216764;0.363684748;0.936612257;0.000410015
NAVIG_172;NAVIG_172;1244.488198;6.820700769;6.263370204;0.557962629;0.92994242;229.5741281;245.0959505;14.83299285;0.332049114;4445.646572;0.347587924;0.868815924;19.12053265;17.7516747;10104.39524;716.3033554;3046.105367;6350.982414;0.62170229;0.178895104;0.435976698;1.169144182;0.000627744
NAVIG_173;NAVIG_173;866.0900973;3.756873222;3.592225759;0.165282699;0.950800504;238.8191509;251.0340353;19.03862398;0.209478117;4310.379736;0.214021758;1.10411395;17.79053281;16.97353343;8635.573876;684.864;2720.368061;5239.337717;0.485524797;0.159847665;0.359378054;0.875529681;0.000458945
NAVIG_176;NAVIG_176;1559.48042;8.83990541;8.466144991;0.374388698;0.960285863;222.7628213;232.1491128;22.25473832;0.415416918;4316.903925;0.425815813;1.179712481;19.68219413;18.95310769;11467.12728;848.3395918;3523.017909;7103.986863;0.680057347;0.207916204;0.489742221;1.253988529;0.000634753
NAVIG_177;NAVIG_177;643.6845061;3.064988327;2.777250759;0.288370424;0.918118426;227.3359981;245.7076462;13.49326092;0.144380737;4611.860235;0.152370932;0.795531157;20.20248078;18.45740502;6973.404657;585.6278091;2245.976598;4150.796151;0.372563761;0.131634052;0.283629963;0.65600434;0.00048268
NAVIG_178;NAVIG_178;437.7195312;1.623807436;1.629370204;-0.004930705;0.960917187;238.682138;248.8365452;22.62516347;0.111154268;4342.024318;0.110932064;1.269752318;18.17679265;17.54963252;5408.095229;444.4316108;1725.114268;3247.545252;0.295049519;0.100840248;0.221264098;0.526431229;0.000406906
NAVIG_180;NAVIG_180;819.2886099;3.791109999;3.541118814;0.250626024;0.940964481;248.949512;263.6452732;16.67941886;0.199963404;4550.054659;0.206896674;1.001586682;17.98253268;16.92333918;12802.70536;896.3298056;3852.358967;8063.791311;0.791233454;0.227408065;0.556502252;1.485757624;0.000370208
NAVIG_181;NAVIG_181;682.1594589;3.351845553;3.209943467;0.14253643;0.951135304;220.8967751;231.9032812;18.92564511;0.147713192;4557.195126;0.151619974;0.988979509;21.47223222;20.42563981;5929.046765;497.4960102;1908.030275;3532.516381;0.317124729;0.111648364;0.240898466;0.559549918;0.000617006
NAVIG_182;NAVIG_182;831.7207561;3.507702216;3.344542426;0.163792646;0.948756848;257.7218129;271.6966278;19.03894984;0.20912106;4530.210243;0.213623077;1.158657359;16.93618015;16.11509977;8665.390604;566.8939886;2520.868468;5586.624048;0.568466401;0.146527711;0.379937404;1.104582736;0.000428649
NAVIG_185;NAVIG_185;797.9982561;4.087702216;3.823917426;0.264417646;0.933830013;230.7193209;246.3351842;16.52836323;0.210371064;4279.255171;0.217690581;0.971808211;18.31464937;17.08810087;7698.570258;603.4523104;2410.041225;4694.072624;0.438463031;0.141153291;0.321004949;0.797493609;0.000527968
NAVIG_186;NAVIG_186;1024.230756;4.341452216;4.065792426;0.276292646;0.940047726;257.7744682;273.6962906;16.30712626;0.192498018;5143.878618;0.200150035;0.928148449;20.06030372;18.83698573;10328.40978;727.5249948;3112.184853;6497.69583;0.636157183;0.183332353;0.447383015;1.194512729;0.000399767
NAVIG_187;NAVIG_187;829.2388646;5.456034103;5.006036871;0.450629295;0.928074353;196.9975417;210.2525049;14.13099173;0.232618178;3999.530559;0.245151654;0.785979444;21.15257574;19.5825684;9366.771183;741.1314564;2950.397614;5684.238014;0.526957961;0.173658958;0.390567091;0.949346417;0.000559224
NAVIG_188;NAVIG_188;824.1009149;2.69028121;2.407609093;0.283302593;0.912445947;274.6707201;299.141131;12.26187344;0.17206621;4901.190929;0.179914604;0.808051577;16.58480414;15.08966556;8437.012741;606.9578739;2553.127483;5285.923285;0.514965671;0.149407562;0.361592246;0.967226533;0.000414941
NAVIG_191;NAVIG_191;939.5808269;4.5940477;4.399119806;0.195564151;0.954632081;230.4905162;241.3983706;20.17718105;0.250494653;4215.498916;0.255886133;1.141288679;18.17120655;17.41828443;10767.70928;789.6839993;3295.8868;6691.134379;0.643342336;0.194358851;0.461013082;1.19093718;0.000354676
NAVIG_193;NAVIG_193;928.8438811;4.975827216;4.720792426;0.255667646;0.95189258;224.2913617;235.333944;19.46032252;0.232813016;4459.296257;0.239887533;1.049213765;20.17098343;19.22403347;8838.045415;687.9350376;2766.13203;5393.753068;0.504158345;0.162815967;0.370710827;0.914449699;0.000412154
NAVIG_194;NAVIG_194;846.9536015;4.907409374;4.59675321;0.311289721;0.937868571;204.8023256;217.0430222;16.13408778;0.251019984;3728.606837;0.259651891;0.951912758;18.45065086;17.30629265;9319.940074;768.8407905;2978.464728;5581.630456;0.507427989;0.174586241;0.381929408;0.901712932;0.000518317
NAVIG_196;NAVIG_196;768.9263811;2.575827216;2.450792426;0.125667646;0.944866647;264.9932519;280.2668463;17.43035739;0.134614551;5384.011142;0.138049069;0.978640928;20.02415956;18.90732564;9723.684194;697.193357;2949.764844;6085.721895;0.591112058;0.173759709;0.418916207;1.10361417;0.000498356
NAVIG_197;NAVIG_197;821.5313811;3.718952216;3.500792426;0.218792646;0.940738831;233.6195165;247.6092977;16.39219751;0.195985643;4402.970147;0.20202766;0.9479883;18.6823696;17.5890644;6948.959125;436.1959411;1994.521266;4527.237819;0.465950637;0.115913626;0.308168011;0.912684795;0.000428467
NAVIG_198;NAVIG_198;852.5045061;3.510464716;3.323292426;0.187805146;0.945113429;253.4105944;267.876653;17.56871356;0.203407134;4685.01193;0.208581501;1.032760798;17.82448217;16.883989;7762.400598;577.0951378;2385.186174;4809.115187;0.459685919;0.140172418;0.330085937;0.849617767;0.000498073
NAVIG_199;NAVIG_199;754.3355312;3.315274103;3.224036871;0.091869295;0.964126863;255.0143312;265.4177502;25.50148646;0.181004356;4903.470609;0.183492552;1.359717417;18.99288419;18.39063452;9321.947026;718.0270302;2906.19365;5706.722247;0.536153649;0.171139175;0.392402183;0.976035864;0.000393627
NAVIG_201;NAVIG_201;672.2775312;2.296034103;2.240036871;0.056629295;0.956967524;260.239784;272.3193416;21.34484363;0.136932692;5037.211086;0.138434168;1.189713275;18.92900106;18.15587749;8714.272378;567.7634135;2544.547404;5610.957462;0.567986197;0.149025472;0.384510671;1.095689215;0.000472679
NAVIG_202;NAVIG_202;517.1851783;2.326683879;2.211016385;0.116298863;0.941542084;218.6423379;231.3783326;16.54519643;0.146631022;3915.203148;0.149803275;0.988226823;17.73875945;16.72668191;5393.499867;367.5179849;1594.471682;3440.506101;0.343191328;0.092584368;0.233676107;0.659156366;0.000506727
NAVIG_203;NAVIG_203;972.6607089;4.020595553;3.773068467;0.24816143;0.938862232;247.4302003;262.9101209;16.253353;0.215914856;4612.834602;0.222779138;0.965286169;18.20112122;17.09022051;6325.735783;472.5869832;1944.654858;3917.489842;0.373892932;0.11390494;0.267939818;0.692080135;0.000438591
NAVIG_204;NAVIG_204;801.6415411;3.384761986;3.231262663;0.154135579;0.9470277;242.0652064;255.3170099;17.9332968;0.200293937;4227.253045;0.204525416;1.080841577;17.12564959;16.26821681;8300.838249;658.9649794;2617.073144;5033.796027;0.465840346;0.153871461;0.345425363;0.838966455;0.000502611
NAVIG_205;NAVIG_205;863.6464283;3.636058879;3.381641385;0.255048863;0.934814504;248.8692292;265.2525516;15.29453343;0.175199134;4899.969138;0.182256386;0.887754029;19.55900481;18.25374708;7310.03871;597.6161448;2328.679917;4392.738549;0.400622795;0.136501811;0.300391319;0.714613703;0.000484657
NAVIG_206;NAVIG_206;894.9409149;4.42428121;4.161609093;0.263302593;0.945102602;234.4240296;247.4265648;17.5016349;0.224555667;4342.460597;0.231844061;1.017315066;18.48178626;17.48209556;10890.71208;738.0197344;3229.500757;6932.187489;0.691099851;0.189733686;0.476277751;1.316392318;0.000347184
NAVIG_207;NAVIG_207;883.3195932;3.580820286;3.378177042;0.203273354;0.941720301;260.3976534;276.5145264;17.41035974;0.210341606;4585.821121;0.215949196;1.067631318;16.90003768;15.9469273;7156.103297;544.2408722;2217.867591;4402.211915;0.416129279;0.13024665;0.301756774;0.763136799;0.000458682
NAVIG_208;NAVIG_208;920.5668174;3.931983897;3.691354924;0.241267779;0.940234269;240.6008027;255.1613659;16.56020502;0.195874589;4779.699612;0.202545666;0.949593681;19.81155237;18.59884538;6926.564221;645.1826413;2316.013689;3973.584972;0.336257837;0.13411597;0.267907215;0.566436673;0.000474413
NAVIG_212;NAVIG_212;1034.685582;4.966947877;4.626942427;0.340635926;0.93842215;236.3534046;250.8762771;16.04435371;0.243154123;4509.457084;0.25260785;0.929371814;19.03905487;17.8574748;8123.335555;503.3248792;2320.68155;5309.103848;0.549372081;0.134948125;0.361748727;1.079085455;0.000425949
NAVIG_213;NAVIG_213;847.7470533;4.197308879;3.839141385;0.358798863;0.927217602;228.3438957;244.7004039;14.36588305;0.220132372;4115.611448;0.230094624;0.892470769;17.65888586;16.34392225;10364.38455;615.1636918;2922.798728;6835.418029;0.716149827;0.170549975;0.467335187;1.415222137;0.000467699
NAVIG_214;NAVIG_214;665.5044522;2.46574103;2.327947187;0.138428399;0.938968181;246.3790368;261.7453148;16.36074565;0.163736956;4461.301151;0.167528705;1.000936086;17.46508466;16.39918936;9415.118321;737.3672893;2953.039737;5733.707197;0.534565915;0.173758526;0.393906661;0.967606428;0.000436762
NAVIG_215;NAVIG_215;546.8763339;1.253095553;1.171193467;0.08253643;0.932678907;268.0466944;286.5655046;14.93086357;0.105843775;4831.627098;0.108070557;0.935967845;16.89821027;15.7673634;7893.197133;485.6382078;2247.67513;5169.658517;0.536579088;0.130517645;0.351823982;1.056778946;0.000289707
NAVIG_217;NAVIG_217;890.8876311;3.746452216;3.657042426;0.090042646;0.962929565;243.3180016;253.4661147;23.60004138;0.206691004;4488.908245;0.209128021;1.29063401;18.35100948;17.75978588;6534.568595;501.2196247;2030.511366;4011.833506;0.377884584;0.119060439;0.274582199;0.691941479;0.000308977
NAVIG_218;NAVIG_218;976.5062482;4.697614543;4.318942427;0.379302593;0.928784634;238.6100234;255.455552;14.28147672;0.237816;4442.531083;0.248352394;0.870317388;18.26159103;16.93395894;10392.39723;701.1994353;3075.685425;6624.508275;0.661754841;0.180563694;0.454799909;1.262914667;0.000368361
NAVIG_219;NAVIG_219;592.8142086;1.741927978;1.612792427;0.129765662;0.927932145;267.4981402;287.236228;14.37118741;0.142606475;4517.391626;0.14615585;0.952486868;15.60044382;14.48953862;8857.455308;665.7869629;2735.339269;5464.546157;0.519357542;0.161036626;0.375659218;0.954357766;0.00040573
NAVIG_220;NAVIG_220;617.4686498;2.925687992;2.782734733;0.143588861;0.944489677;221.6394643;234.0362727;17.23418246;0.18094038;3938.20191;0.184876578;1.030362781;17.51121527;16.57624855;7505.803777;560.0069588;2309.802504;4644.211395;0.442963187;0.135741062;0.318661661;0.817500143;0.000406759
NAVIG_221;NAVIG_221;831.9421319;3.010194984;2.880347983;0.130475891;0.946125167;261.3467006;276.229393;18.09363232;0.185189594;4849.371562;0.188758905;1.081546544;17.80597734;16.853339;7140.215126;491.6221911;2123.79682;4533.792016;0.44994284;0.124015672;0.30953555;0.857899298;0.000473724
NAVIG_222;NAVIG_222;1007.591582;5.181614543;4.92027576;0.26196926;0.948566903;225.3927487;237.2247962;18.21694431;0.249719691;4423.725048;0.256970751;0.996605817;19.79201365;18.79519913;9702.636094;661.6438258;2889.02754;6160.181809;0.610834349;0.170125755;0.424042213;1.158052892;0.000380406
NAVIG_223;NAVIG_223;767.4988996;2.85367816;2.729429332;0.124878285;0.947958741;261.0239354;275.3298627;18.09725028;0.168471198;4699.756762;0.171883753;1.082367925;17.50993561;16.63618114;10010.57985;666.2002498;2953.656696;6398.93998;0.64079328;0.173856528;0.440417502;1.223567952;0.000569152
NAVIG_224;NAVIG_224;825.9030133;2.85799761;2.802635563;0.055995603;0.960639786;261.1339013;272.5690537;22.26424559;0.183441432;4567.245631;0.184925103;1.310860585;16.84131789;16.26948935;8131.963352;591.7663497;2477.917471;5071.275433;0.489745182;0.145598478;0.348135231;0.912139121;0.000380995
NAVIG_225;NAVIG_225;596.5258033;2.532308879;2.437891385;0.095048863;0.952633596;241.077163;253.0039396;19.53302457;0.153471933;4267.013759;0.156049186;1.150760636;17.50174596;16.73128832;7423.67023;584.5314144;2331.520138;4516.614578;0.419913311;0.136878708;0.309466076;0.760068317;0.000440079
NAVIG_226;NAVIG_226;1073.804865;5.176700769;4.882703537;0.294629295;0.947916701;251.2497853;264.7060055;18.44771411;0.268176482;4678.998829;0.276341958;1.065847039;18.33741487;17.41668162;5942.232569;509.3553335;1927.891485;3513.981652;0.3117156;0.112674024;0.239275357;0.54485235;0.000492797
NAVIG_227;NAVIG_227;640.9581476;3.117120329;2.883797981;0.233955997;0.942417795;249.3626068;263.3143997;18.70583081;0.169395554;4832.216676;0.175862113;1.034828085;18.90113076;17.84874192;8372.083261;618.8773364;2566.222622;5195.979204;0.498365941;0.150798124;0.356667574;0.923299566;0.000608648
NAVIG_228;NAVIG_228;901.8287325;4.599689198;4.193992428;0.406322487;0.922359657;229.5393065;247.0791233;13.17837293;0.257873508;4196.724562;0.269166655;0.826199356;17.61918393;16.2320896;7712.715373;559.3088445;2346.881059;4815.52137;0.465682429;0.137844513;0.330448839;0.868547417;0.000444722
NAVIG_229;NAVIG_229;764.5436459;2.725862704;2.608728701;0.11776616;0.948932821;267.0505753;281.4335546;18.48763408;0.172398006;4573.320794;0.175611311;1.156876575;16.4884327;15.68984939;6133.792909;442.6084178;1860.922371;3838.479201;0.37198526;0.10896483;0.262496988;0.696669711;0.000730669
NAVIG_232;NAVIG_232;850.4583074;3.490350551;3.242047328;0.24893678;0.935896319;245.5134783;261.3189938;15.6816475;0.208905365;4286.937538;0.215791389;0.980808815;16.78105352;15.71902886;7349.549607;681.6206173;2458.845293;4218.079599;0.356723961;0.143098981;0.285831165;0.598288338;0.000407065
NAVIG_234;NAVIG_234;953.9295351;3.806258239;3.605593708;0.201296472;0.947828722;255.0004767;268.7048728;18.80932276;0.207014846;4738.97686;0.212567008;1.09671034;18.2547536;17.31046398;5896.210738;409.990928;1759.588177;3735.627534;0.368956782;0.1025663;0.254576553;0.70219404;0.000625498
NAVIG_235;NAVIG_235;1046.793207;5.202325945;4.87168986;0.331273518;0.943051702;250.5836295;264.801423;17.74331926;0.229595131;4851.010899;0.238786424;1.025890771;19.73706616;18.57817796;6817.456033;624.5941383;2270.605731;3931.252064;0.334838971;0.132305027;0.266692604;0.565104021;0.000582229
NAVIG_236;NAVIG_236;777.7648224;3.204086234;3.029905171;0.174813219;0.943394796;246.8464104;261.1902922;16.93706653;0.210206624;4298.868946;0.215017247;1.051165988;16.56170176;15.67120076;10063.57159;703.9114311;3022.888678;6346.546203;0.623595653;0.177908283;0.436704327;1.174598196;0.000601775
NAVIG_237;NAVIG_237;961.7088811;5.054577216;4.735792426;0.319417646;0.942984573;225.4053673;238.1073974;17.1830927;0.217697197;4603.447283;0.226556714;0.925475745;20.98653259;19.77483379;7050.723234;608.335663;2292.203825;4159.179647;0.368268034;0.133899118;0.283243309;0.64217732;0.000487584
NAVIG_238;NAVIG_238;533.4420533;2.222933879;2.207266385;0.016298863;0.964331366;228.4513933;237.3947241;24.04559332;0.125832921;4277.828461;0.126205173;1.304373741;19.02245507;18.40942792;7705.749428;601.3710651;2411.392218;4701.982046;0.439316838;0.141567838;0.322233247;0.798192596;0.00064355
NAVIG_240;NAVIG_240;738.6648224;2.704097998;2.581081642;0.123648513;0.948981693;259.151646;272.8834001;18.60860194;0.132843944;5159.536723;0.136221954;1.035707951;19.91323725;18.89950908;5770.624836;496.6504276;1874.109577;3408.860733;0.301889226;0.109381075;0.231787938;0.527471076;0.000484073
NAVIG_243;NAVIG_243;979.9861728;4.099577216;3.935584093;0.16462598;0.954294676;249.5338128;261.6693237;19.93485044;0.218081503;4710.277323;0.222606854;1.116919288;18.54275338;17.75124335;7160.902992;477.4609842;2105.826982;4586.610927;0.460621535;0.122994245;0.313388727;0.885393944;0.000420083
NAVIG_244;NAVIG_244;1101.54438;4.931817781;4.695820202;0.236634402;0.952553477;250.4748837;262.9385996;19.48102479;0.257312965;4638.779388;0.263854388;1.11783396;18.20660286;17.39555747;8374.587601;561.000665;2471.781223;5350.801615;0.535512225;0.144930729;0.366959562;1.024462368;0.000508633
NAVIG_246;NAVIG_246;1370.071649;7.356005787;7.023917426;0.332721218;0.956560547;223.038098;233.151489;21.07085236;0.369883638;4090.674814;0.379115655;1.180332757;18.43324527;17.69524443;6952.213426;576.7641997;2229.262855;4155.961093;0.375442289;0.130794378;0.284390892;0.664225018;0.000651577
NAVIG_251;NAVIG_251;917.7374599;4.164160506;3.920255031;0.243605739;0.949347256;246.2448051;258.6880796;20.36203831;0.204529964;4750.006855;0.211391655;1.157031854;19.25624325;18.24429055;10376.00237;882.1136529;3357.38137;6145.503248;0.549002873;0.196885886;0.420557907;0.960648336;0.000657906
NAVIG_255;NAVIG_255;1067.197302;4.846226905;4.586495312;0.259430422;0.953029859;236.909681;247.8047989;22.0000089;0.246441284;4387.128295;0.253746348;1.307381971;18.41325325;17.50119474;9452.631463;703.9872326;2892.261537;5855.692582;0.554844737;0.172038834;0.402462881;1.01602879;0.000415303
NAVIG_264;NAVIG_264;856.6375998;4.198701484;3.919708115;0.27869491;0.938536251;229.1162954;243.7238277;16.36918719;0.200669502;4544.248731;0.208513439;0.912536251;19.43023387;18.21998552;13658.49688;1013.295974;4170.688566;8473.822226;0.801609879;0.248558545;0.581721154;1.467831855;0.000405182
NAVIG_305;NAVIG_305;810.9078625;4.053969195;3.808327201;0.245340609;0.941117929;231.9436892;246.4161052;17.45853315;0.191894889;4560.430396;0.198804542;0.980097978;19.30064427;18.14618567;8197.788412;610.4184285;2506.363669;5080.316203;0.482206407;0.149010246;0.34918922;0.884024679;0.000515271
NAVIG_307;NAVIG_307;887.9770443;4.208845929;3.936374782;0.272172688;0.939217517;234.4734059;249.3192528;16.43643212;0.198396798;4738.343247;0.206058114;0.909406672;19.67478408;18.45310399;6635.867257;471.6736235;2001.340602;4159.703765;0.402085219;0.119218561;0.287054738;0.745635351;0.000518408
NAVIG_308;NAVIG_308;945.5520443;4.151773707;3.926374782;0.225100466;0.952301354;258.093148;270.1891501;22.21064416;0.199947291;5036.842567;0.206290584;1.243708421;19.30226833;18.34247466;7928.212197;612.5445904;2452.284912;4862.692583;0.455684671;0.144943719;0.332957421;0.828731351;0.000505059
NAVIG_309;NAVIG_309;1016.585387;4.404181678;4.163278846;0.240605649;0.951453717;255.0713233;267.2703792;21.61879949;0.21377199;4923.880556;0.220549177;1.224512661;19.16076608;18.18897106;9218.849558;733.4650492;2881.761397;5602.933;0.518188143;0.16965406;0.38243612;0.934307196;0.000418619
NAVIG_310;NAVIG_310;927.8648221;4.245440373;3.994708115;0.250433799;0.945602826;250.7834817;264.4831348;19.36641391;0.206762763;4942.265315;0.213815389;1.083522156;19.31503947;18.23803105;9475.725631;766.8418803;2979.469651;5728.723988;0.525907055;0.175054779;0.390350805;0.943428355;0.000445994
NAVIG_311;NAVIG_311;924.0053776;4.343173707;4.088041448;0.254833799;0.947355207;232.7561418;245.0712515;19.84296385;0.212384101;4501.837509;0.219559927;1.130588837;19.0713596;18.03049335;9059.592659;598.8081826;2648.379031;5811.715333;0.576131191;0.158130866;0.399389676;1.092669698;0.000444556
NAVIG_312;NAVIG_312;987.6770443;4.816768151;4.551374782;0.26509491;0.947863608;223.5546527;235.4328346;19.75566928;0.22277133;4505.06388;0.230234468;1.079824007;19.855037;18.79695412;8683.598744;644.8208091;2653.24597;5384.841852;0.511202522;0.157877444;0.370234547;0.937224918;0.000480669
NAVIG_313;NAVIG_313;1025.618916;4.363193443;4.132690611;0.230205649;0.95553928;276.9679887;288.8942668;23.81782997;0.217703972;5220.888271;0.224189959;1.382936024;18.81557066;17.92830035;7866.45843;592.1145669;2414.150043;4859.503707;0.459869816;0.143138844;0.333687447;0.841476659;0.000575606
NAVIG_314;NAVIG_314;1019.070378;4.706451484;4.436374782;0.269778243;0.946362295;240.5653675;253.6148466;19.66397846;0.238625662;4579.302202;0.246219933;1.151036024;18.62570882;17.59567117;9871.712137;706.2476344;2974.89222;6189.882171;0.595222913;0.177561365;0.425853849;1.102331988;0.000439978
NAVIG_315;NAVIG_315;1134.039822;5.110468151;4.808597004;0.301572688;0.94409615;232.7639453;246.0613522;19.16582638;0.255977376;4498.982324;0.264461891;1.099250498;19.02282734;17.92675622;10052.93424;757.1706037;3085.731039;6209.342485;0.585524555;0.18343404;0.426200724;1.069055793;0.000475812
NAVIG_317;NAVIG_317;1275.960989;5.7366958;5.424960914;0.311435151;0.94904472;242.5246958;254.8703367;20.17873044;0.283565185;4678.447296;0.2923261;1.143930832;19.14401323;18.13361055;10403.41906;843.9458621;3276.20029;6282.582796;0.575491606;0.192525534;0.428087235;1.03058558;0.000482372
NAVIG_318;NAVIG_318;1118.331578;4.963178153;4.689078561;0.273799857;0.950818747;241.0358355;252.744246;20.782691;0.248056061;4620.905534;0.255763188;1.203986416;18.89122544;17.91901788;10479.03678;782.7576521;3209.427756;6486.161262;0.613900511;0.190485147;0.445190514;1.124274183;0.00052308
NAVIG_319;NAVIG_319;1077.031578;4.781813447;4.529666796;0.251846916;0.95462449;249.1124399;260.0181498;23.92048406;0.242201884;4634.79988;0.249294329;1.403511558;18.53174741;17.64839047;10083.65508;777.0543443;3122.25392;6183.656704;0.57827598;0.184809601;0.423703549;1.049760796;0.000473238
NAVIG_320;NAVIG_320;1017.251857;5.04651109;4.745043552;0.301170355;0.944981333;211.6074356;223.4975988;18.7667699;0.26096563;3956.501578;0.269438629;1.113576192;18.41305716;17.36555646;8107.48428;572.7866156;2429.967504;5104.040048;0.494061678;0.145084511;0.351353429;0.919165466;0.000630078
NAVIG_321;NAVIG_321;814.2647986;3.873758149;3.662690611;0.210770355;0.954685795;250.2662986;261.2473559;24.50889634;0.18889313;4699.950255;0.194834929;1.406025359;18.70711114;17.82189941;10225.76477;826.2561803;3214.554823;6184.263654;0.567490055;0.18906303;0.421513097;1.017581552;0.000488824
NAVIG_323;NAVIG_323;849.2225998;4.038523707;3.831930337;0.20629491;0.961164876;245.814295;254.520155;29.05955461;0.192711061;4856.11065;0.198527799;1.593919443;19.54866527;18.74055873;8759.565791;635.3642973;2655.00214;5468.509242;0.523456685;0.158427571;0.37657405;0.96516254;0.000428931
NAVIG_324;NAVIG_324;981.9047453;4.479601214;4.216426029;0.262847669;0.946807618;254.402218;268.5820918;20.02189414;0.224795045;4862.554962;0.232197385;1.177457259;18.84788243;17.79351314;7849.779593;528.7292123;2320.499821;4999.860448;0.491151551;0.139398607;0.345778435;0.921547972;0.000514312
NAVIG_325;NAVIG_325;1030.973034;4.762099325;4.490925905;0.270876238;0.94731353;236.9734663;249.5965689;19.56118639;0.23315639;4558.097861;0.240781154;1.118563874;19.0290832;17.99578757;8639.301809;680.2917949;2698.258589;5252.683848;0.486495231;0.158896929;0.358954401;0.877186554;0.000474573
NAVIG_326;NAVIG_326;1146.069504;5.097275796;4.765043552;0.331935061;0.93706788;242.1045557;257.9538848;15.60329734;0.253850698;4619.53289;0.263185109;0.907511864;18.81213229;17.60622805;9196.258489;639.0336575;2745.134175;5811.400544;0.564381244;0.164499607;0.400836194;1.051605089;0.000576649
NAVIG_327;NAVIG_327;1050.864267;4.897162595;4.603041448;0.293822688;0.944398862;226.894639;239.714031;18.16706841;0.245052795;4332.156862;0.25332031;1.05804765;18.77560829;17.69910345;11833.33233;984.959432;3753.825215;7093.857571;0.642432822;0.219560069;0.481096392;1.14323092;0.000444696
NAVIG_328;NAVIG_328;998.4703532;4.369033388;4.132246412;0.236483166;0.951930044;258.8071358;271.172488;22.3175967;0.210981597;5021.714298;0.217643556;1.257109496;19.22906697;18.26928811;9808.607085;757.544678;3036.810126;6013.562169;0.562159619;0.179671072;0.411758998;1.020648937;0.000478269
NAVIG_329;NAVIG_329;904.9248221;4.169429262;3.953597004;0.215533799;0.956482122;248.0401044;258.4235021;25.03494329;0.207070035;4596.271915;0.213145461;1.466828394;18.49655416;17.64481881;8868.539882;617.089717;2655.07035;5593.230547;0.542938851;0.1586418;0.385897669;1.010880424;0.000469968
NAVIG_331;NAVIG_331;819.193711;4.07940704;3.829708115;0.249400466;0.940566466;229.8994154;244.3395994;17.94594405;0.199258636;4275.842245;0.206282329;1.054322051;18.49123946;17.37821883;7498.500472;545.2210219;2273.610641;4678.978697;0.448504193;0.135419299;0.322156928;0.827727313;0.000523147
NAVIG_332;NAVIG_332;774.8228776;3.788901484;3.56415256;0.224450466;0.948605996;232.3477281;244.2178657;20.19610227;0.186016345;4361.830624;0.192341438;1.185463258;18.50808149;17.51989096;7623.429164;553.2725001;2312.128791;4757.337761;0.456210982;0.137690598;0.327714028;0.841973412;0.000504901
NAVIG_333;NAVIG_333;949.1830339;4.414728737;4.142102376;0.272329179;0.943741228;242.6430175;256.5093424;17.82065536;0.218869832;4518.932301;0.226535278;1.058778483;18.47431384;17.40088592;6894.831845;530.8657835;2130.789651;4232.486299;0.397717423;0.126024215;0.290211834;0.724062621;0.000531186
NAVIG_334;NAVIG_334;1025.112044;4.792268151;4.526930337;0.265039355;0.951460305;235.5737771;246.7995215;22.56010694;0.253571408;4160.688231;0.26103299;1.400929265;17.59394927;16.69315079;7425.955278;519.8266109;2223.403123;4682.035431;0.454471494;0.133109071;0.323286239;0.845602819;0.000616457
NAVIG_335;NAVIG_335;878.752754;4.35281933;4.076725619;0.275793975;0.941129502;233.6928282;247.6637146;17.41893756;0.217015531;4317.514112;0.224778493;1.034865473;18.33254956;17.23116168;8899.417797;707.6000324;2781.318242;5409.80941;0.50062634;0.163750683;0.36933892;0.902901647;0.000514938
NAVIG_336;NAVIG_336;772.190681;4.058887561;3.829749434;0.228840944;0.950014218;205.4386618;215.7217511;21.19159579;0.189174961;4177.405859;0.195622737;1.166378614;19.73769047;18.72538477;7491.702683;530.0284758;2251.636077;4709.348018;0.45559484;0.134542146;0.32492062;0.845869269;0.000555403
NAVIG_337;NAVIG_337;961.6434412;4.504106153;4.22699462;0.276811628;0.941519078;237.9397266;252.3002532;17.33894285;0.216340419;4790.992807;0.224131909;0.957048601;19.6729153;18.49648066;7887.450425;574.0198354;2392.560888;4920.17959;0.470852933;0.142759972;0.338888697;0.867734819;0.000540502
NAVIG_338;NAVIG_338;811.419754;4.247778153;4.019078561;0.228399857;0.951162684;223.4917573;235.1899024;22.12737875;0.202429848;4414.766164;0.208865775;1.225454494;19.44153333;18.45749744;8576.631627;658.5112079;2639.713034;5277.717273;0.496328916;0.155600101;0.360323269;0.90722121;0.00053633
NAVIG_339;NAVIG_339;916.9692834;4.611554624;4.35790209;0.253352798;0.950830469;214.10882;224.5251877;21.15630699;0.215534822;4390.84207;0.222669431;1.142453267;20.00898496;18.99611371;8536.778388;616.6271593;2584.696612;5334.764504;0.512159042;0.15380831;0.36716919;0.946763156;0.000461541
NAVIG_340;NAVIG_340;1118.25385;5.386280651;5.061583115;0.324399077;0.94445651;227.0139851;239.6219473;19.77395381;0.260481497;4551.018028;0.269605151;1.074643803;19.64486078;18.53600757;7893.147744;560.9491622;2374.355588;4958.589289;0.479100222;0.141778234;0.341871509;0.889186566;0.000512216
NAVIG_341;NAVIG_341;1084.165387;5.110252267;4.875043552;0.234911532;0.960009376;232.0248396;241.3222562;29.04170017;0.24388596;4804.103494;0.250503712;1.567653095;20.22341598;19.37107407;11889.76062;923.7479461;3690.43486;7274.887703;0.676987457;0.218511818;0.497893742;1.225201032;0.000454949
NAVIG_342;NAVIG_342;767.5068717;3.767189918;3.536137384;0.230752798;0.938184393;218.9654852;232.4448329;17.95996132;0.179694114;4336.243819;0.186195923;1.01581474;19.35457631;18.12188507;9885.531407;749.7187353;3037.516351;6097.606208;0.574086583;0.180151819;0.417754603;1.048097084;0.000552573
NAVIG_343;NAVIG_343;947.5665633;4.704364031;4.444455317;0.259611532;0.949411189;218.0165155;229.1399518;20.52127328;0.22684911;4366.184556;0.234158462;1.13229674;19.63563295;18.61295954;7609.285776;595.3078591;2366.912493;4646.375312;0.433545796;0.139529815;0.318051183;0.785700734;0.000433978
NAVIG_344;NAVIG_344;962.3980251;4.517123482;4.267088277;0.249738193;0.950145849;232.9707015;244.4871331;21.40460945;0.228724065;4339.926328;0.23575693;1.25632479;18.44794384;17.49206393;10611.35533;801.8741337;3262.817214;6545.973875;0.616317799;0.193766342;0.449186991;1.124109706;0.000428449
NAVIG_345;NAVIG_345;972.0134412;4.65189282;4.381661287;0.269931628;0.946538677;224.2043417;236.2085566;19.08582717;0.239067172;4109.447676;0.246666022;1.154454693;18.11902513;17.11074824;8540.562538;606.291447;2570.950883;5362.630096;0.517522632;0.153551807;0.369748715;0.95958782;0.000490418
NAVIG_346;NAVIG_346;1160.947711;5.350695929;5.073041448;0.277356021;0.953564307;226.2564713;236.5121735;22.50784937;0.259041744;4627.785235;0.266848193;1.23903398;19.7845214;18.82679795;9544.593379;678.7979435;2876.110859;5988.994465;0.576884069;0.171832066;0.412853948;1.068384203;0.000465155
NAVIG_347;NAVIG_347;1076.377302;5.192058155;4.910245312;0.281511672;0.951740611;213.242947;223.2657752;21.63161508;0.264831387;4029.098694;0.272754726;1.266296724;18.56465793;17.62715867;10810.87182;850.2494633;3368.835212;6591.097035;0.610967813;0.199056657;0.450622719;1.102746007;0.0005012
NAVIG_348;NAVIG_348;992.089754;4.858689918;4.592019737;0.266370445;0.95080801;217.767477;228.322692;21.55671695;0.239911509;4246.718732;0.247410612;1.214954747;19.12096868;18.14489337;9784.536339;743.8807076;3014.886862;6025.078657;0.566388385;0.17887475;0.413373125;1.03170507;0.000526156
NAVIG_349;NAVIG_349;896.403711;4.229623707;3.99915256;0.230172688;0.953046881;234.4694485;245.3546271;22.151001;0.202121255;4643.810524;0.20860657;1.239593401;19.46877693;18.51048129;9005.8872;650.3319968;2724.206348;5630.658744;0.539810954;0.162591296;0.387625655;0.996782981;0.000553255
NAVIG_350;NAVIG_350;958.5813051;4.569311511;4.304717338;0.264278837;0.947182201;226.4775392;238.4277901;19.70674954;0.227484861;4301.645503;0.234928465;1.132796857;18.75130926;17.73627208;8921.853619;683.1002941;2751.515806;5486.547407;0.515651689;0.16257897;0.375573146;0.940386309;0.000427718
NAVIG_351;NAVIG_351;771.829211;3.593818151;3.380819226;0.212700466;0.949209551;271.1634959;284.8092611;21.35319624;0.173194152;5238.088621;0.179190245;1.205117248;19.06353541;18.06864835;7971.687217;696.2551041;2573.833299;4702.345109;0.418621346;0.149130268;0.317706127;0.735277618;0.000525858
NAVIG_352;NAVIG_352;1039.345897;5.081321897;4.792295919;0.288730231;0.947653338;221.4772335;233.2327632;19.59727603;0.257503246;4128.522421;0.26562764;1.155788146;18.51382217;17.50901464;8296.077593;707.1462328;2647.875306;4940.365943;0.445359767;0.153378001;0.333513471;0.791522936;0.000380224
NAVIG_353;NAVIG_353;880.9003776;3.973968151;3.723597004;0.250072688;0.942177216;255.5547282;270.5195032;17.33317661;0.200781924;4712.787051;0.207824439;1.043332977;18.24681805;17.15993585;9901.397863;791.2267602;3099.394416;6010.086574;0.554219263;0.182592532;0.410051088;0.997227141;0.000539511
NAVIG_354;NAVIG_354;1047.299267;4.690040373;4.393041448;0.296700466;0.93959565;248.5012005;264.0560275;16.47108177;0.233298695;4724.484152;0.241646788;0.957031917;18.80088347;17.64135276;6413.603658;402.6557343;1851.581803;4158.676008;0.418299118;0.111721555;0.288460863;0.79725218;0.00064738
NAVIG_355;NAVIG_355;1241.368711;5.375773707;5.080263671;0.295211577;0.949355287;246.9913203;259.4922417;20.32061934;0.269305922;4724.483534;0.277612326;1.16262646;19.00192198;18.00479604;10384.01179;764.0644357;3160.386273;6458.870971;0.615166207;0.187706639;0.443278892;1.132371985;0.000419036
NAVIG_356;NAVIG_356;1145.12135;5.212236901;4.893458115;0.318480327;0.941667508;232.8367807;246.8560753;17.05954754;0.261988766;4461.693179;0.270946695;0.98412216;18.88423043;17.7531023;9504.528666;712.1651453;2908.78675;5882.886658;0.556609609;0.172722054;0.403487201;1.019484798;0.000587199
NAVIG_357;NAVIG_357;1022.88885;4.752436901;4.479708115;0.272430327;0.944514919;227.8193875;240.5202905;19.67064812;0.236537289;4538.604428;0.244205818;1.119379059;19.6451364;18.48654157;12451.93624;984.5150284;3887.66606;7579.065042;0.700145683;0.229685309;0.517768423;1.260962688;0.000430007
NAVIG_358;NAVIG_358;1101.528522;4.475540647;4.204795919;0.270448981;0.943613864;281.9357034;298.0886111;17.84149576;0.214600992;5534.927492;0.222213511;1.001029701;19.46781816;18.33899233;9003.840224;671.3056907;2748.884808;5582.959614;0.529329401;0.16346437;0.383082637;0.970836344;0.000586977
NAVIG_359;NAVIG_359;947.7775998;4.186234818;3.940819226;0.245117132;0.945460273;252.2954514;265.7097776;19.56007632;0.208089121;4832.983741;0.21499288;1.134149692;19.05444267;17.95747122;10239.18073;796.0290735;3167.167661;6275.293887;0.586555462;0.18625732;0.427664013;1.068274944;0.000403656
NAVIG_360;NAVIG_360;973.4994748;4.736243151;4.485333115;0.250611577;0.955294595;226.1039478;236.0145733;25.31870522;0.246494295;4185.478791;0.253551899;1.516784617;18.24262296;17.37741451;7626.366721;534.2888504;2287.125301;4804.262457;0.466119879;0.136784869;0.331860857;0.866743967;0.000497412
NAVIG_361;NAVIG_361;1075.23679;4.692494133;4.417718298;0.274474799;0.946619023;254.8742925;268.4052059;20.40118565;0.23177266;4844.293065;0.239498303;1.176333694;18.86397602;17.82567738;9150.091046;660.4138714;2767.647758;5721.339305;0.549244138;0.164671453;0.393406327;1.015990283;0.00049671
NAVIG_362;NAVIG_362;1031.556489;4.863790373;4.580819226;0.282672688;0.946563113;233.8413232;246.6634996;20.29809493;0.234677376;4724.483926;0.242632691;1.106932609;19.78718276;18.6979336;7436.855917;484.0470744;2177.099238;4773.583085;0.473484961;0.131315309;0.33103965;0.893337719;0.0007064
NAVIG_363;NAVIG_363;974.7110222;4.385234397;4.140420919;0.244517731;0.953408775;253.090268;264.5327668;23.18411571;0.221610271;4738.152228;0.228496714;1.36317039;18.57921116;17.66405911;9492.933345;701.6683862;2893.619563;5896.955283;0.560207389;0.172433611;0.405299995;1.028067124;0.000536481
NAVIG_364;NAVIG_364;1124.962302;5.003745655;4.696495312;0.306949172;0.938656803;247.1257439;263.140789;17.16765656;0.246219612;4765.12626;0.254855201;0.968443474;19.05917452;17.87936165;9116.236376;592.2377028;2657.484054;5865.824508;0.582761831;0.159740308;0.405006967;1.104129132;0.000481728
NAVIG_365;NAVIG_365;1033.767152;4.855975796;4.542102376;0.313576238;0.936603592;233.4350266;249.0083253;16.007493;0.234746072;4619.768302;0.243566436;0.888473055;19.52900604;18.28024401;9234.793078;731.3731293;2883.128065;5619.601772;0.520668179;0.16982595;0.383803408;0.939813255;0.000537952
NAVIG_366;NAVIG_366;900.2008221;4.073584818;3.848041448;0.22524491;0.948921826;263.5218241;277.4132261;21.99874976;0.192633477;5106.022738;0.198980815;1.222509839;19.24604119;18.24272196;9262.829793;724.3566089;2879.8682;5657.914871;0.526853905;0.169918165;0.386923324;0.954147411;0.00048383
NAVIG_367;NAVIG_367;1093.837152;4.604475796;4.342690611;0.261488002;0.948362842;263.6347283;277.1530589;20.06359931;0.242231695;4637.257609;0.249593588;1.248109741;17.6040715;16.65471752;6518.706165;518.508361;2036.595948;3962.911744;0.368344693;0.119610712;0.270735129;0.666051335;0.000566943
NAVIG_368;NAVIG_368;774.0780756;3.752534144;3.541181934;0.211058091;0.950406259;246.8577004;259.2738572;21.42014974;0.186143954;4522.855023;0.192093208;1.271727945;18.28478024;17.33838353;10367.86082;809.6060643;3212.177899;6345.386741;0.591924245;0.188851501;0.432327282;1.076493435;0.000416724
NAVIG_369;NAVIG_369;874.9957727;4.269234043;4.027292083;0.241642635;0.950031452;225.8345171;237.3029161;20.9355963;0.207240093;4350.47069;0.214045588;1.196742715;19.05053399;18.05900879;8734.057894;606.6948905;2613.793546;5511.442937;0.534985403;0.156619582;0.380812186;0.995160077;0.000413803
NAVIG_371;NAVIG_371;981.4286364;4.289231094;4.061431502;0.227499857;0.946971692;284.4197298;302.653252;23.12673842;0.219523401;5271.623113;0.225934128;1.385933416;18.29446532;17.2672386;8250.001313;719.7282284;2656.568397;4870.555421;0.433975819;0.153171613;0.327676866;0.765178538;0.000512323
NAVIG_372;NAVIG_372;991.6149398;4.682042213;4.423643653;0.258096832;0.950605369;231.4214904;242.8520153;21.53190852;0.2250571;4599.935558;0.232323917;1.182772075;19.52482872;18.53120879;7361.86334;556.5154052;2264.283118;4540.374704;0.429283413;0.134134469;0.311913086;0.784580761;0.000520106
NAVIG_373;NAVIG_373;1042.495427;4.519589405;4.326495312;0.192792922;0.966663184;246.9944734;253.9073605;36.77982176;0.220677422;4835.481722;0.226116637;2.066715114;19.63437224;18.89569778;8604.178533;684.4209551;2692.762925;5223.845386;0.483150813;0.158277986;0.356612127;0.870874974;0.000512534
NAVIG_374;NAVIG_374;868.8697584;3.961183482;3.73642161;0.224464859;0.952018751;257.6344451;269.9269254;22.13841479;0.195847986;4813.922264;0.202173198;1.294176602;18.62525739;17.68787296;9317.809778;654.7983121;2794.013133;5868.308221;0.568235656;0.166823248;0.404333105;1.056992152;0.000453838
NAVIG_375;NAVIG_375;1098.407044;4.846762595;4.594708115;0.251756021;0.953924861;251.6438084;262.9666336;22.71062906;0.228687243;4965.377132;0.235776891;1.257129919;19.57855545;18.64102197;7805.575019;566.2560735;2365.004074;4873.624759;0.467294631;0.140930401;0.335551112;0.86267377;0.000510043
NAVIG_380;NAVIG_380;950.5440165;4.447406262;4.171397021;0.275677855;0.941754478;231.6867915;245.8935258;17.15137272;0.209120001;4723.837953;0.2168822;0.921781938;19.82174974;18.65400815;8621.576737;632.2251425;2622.770126;5365.891356;0.512594137;0.155692854;0.368744536;0.944747751;0.000499216
NAVIG_381;NAVIG_381;934.6958915;4.572068762;4.327022021;0.244715355;0.953012938;231.3874237;242.3340618;24.08260125;0.215613289;4749.12093;0.222508538;1.275990538;20.03334356;19.06625494;7849.906704;613.5122172;2445.316908;4782.77179;0.444499865;0.144145189;0.327179933;0.803108342;0.000526518
NAVIG_383;NAVIG_383;1018.472305;4.819557945;4.550060541;0.269194589;0.949219369;232.5541926;244.5738092;20.91683247;0.234836529;4542.697149;0.242413376;1.171391441;19.26216652;18.25185849;8619.624062;611.2700152;2599.056726;5400.991532;0.519685462;0.155128863;0.372222401;0.961456306;0.000528895
NAVIG_384;NAVIG_384;947.3350261;4.635141599;4.308416185;0.326366934;0.926451215;215.363361;232.6576747;12.67196093;0.223048235;4372.61861;0.232234029;0.678501521;19.48337921;18.06893162;10358.62194;787.5348749;3193.715257;6369.066016;0.597532428;0.188899663;0.435981742;1.088162228;0.000435309
NAVIG_385;NAVIG_385;876.0678941;4.193148383;3.916374459;0.276439527;0.93796843;241.4477749;257.6627646;17.73586288;0.195823512;4850.154842;0.203607516;0.965302113;19.6968647;18.46147987;6940.672358;582.3467949;2204.782694;4145.475291;0.375670182;0.127892254;0.280144338;0.669774734;0.000579821
NAVIG_387;NAVIG_387;882.7934223;4.063067165;3.805796841;0.256937343;0.942584648;253.9091785;268.9415941;17.34718895;0.195065021;4950.266571;0.202302739;0.974446326;19.21507306;18.08886131;8377.186756;653.3352034;2610.807673;5104.738091;0.474375177;0.15403718;0.349546505;0.856533428;0.000611767
NAVIG_388;NAVIG_388;940.188915;4.435229099;4.139943963;0.294926656;0.933060012;240.7622518;258.224931;14.08412724;0.210593011;4947.112288;0.218898478;0.739611795;19.91920107;18.58947596;8360.596008;602.3806964;2533.340719;5216.568803;0.499341434;0.150956818;0.359096175;0.920631727;0.000503363
NAVIG_390;NAVIG_390;793.7317777;3.459689161;3.20283443;0.256518917;0.922839502;287.3717088;311.3535587;12.67476247;0.154299087;5902.40489;0.161525539;0.662552105;20.08752981;18.56007783;8817.610157;687.0086524;2741.15708;5381.138636;0.499992429;0.162008063;0.368075149;0.903517238;0.000498188
NAVIG_391;NAVIG_391;903.1296415;4.504468762;4.252647021;0.251490355;0.947769274;216.0214953;228.001613;21.29109333;0.214566666;4292.484703;0.221651615;1.196785214;19.39703575;18.35771974;9467.428151;723.3823738;2926.268771;5809.233006;0.54339108;0.173448858;0.398226802;0.986124517;0.000484485
NAVIG_392;NAVIG_392;886.7478941;4.209448383;3.991999459;0.217114527;0.958495618;243.2387192;253.184191;26.44436184;0.213125097;4486.167985;0.219248001;1.567425573;18.41983506;17.60044583;6319.676507;469.7852786;1925.189424;3916.396015;0.373336365;0.113185972;0.267499688;0.689081513;0.000520621
NAVIG_393;NAVIG_393;879.2408774;4.10216711;3.853888814;0.247967088;0.945502861;240.1231986;253.6657258;19.61827015;0.197799859;4616.782961;0.204783534;1.120298534;18.96482407;17.90198715;9223.144085;656.8153453;2785.790284;5772.232667;0.554492964;0.16610422;0.397610888;1.024927728;0.00049085
NAVIG_394;NAVIG_394;867.7035191;4.173035883;3.924499459;0.248202027;0.947012569;230.6494823;243.3445373;19.14655419;0.201546915;4516.808876;0.208540269;1.081814865;19.14117433;18.09645756;8572.114194;682.5078567;2687.138349;5194.162199;0.478485755;0.158298168;0.354784473;0.859132041;0.000511509
NAVIG_395;NAVIG_395;1037.319177;4.569127924;4.30711453;0.261682437;0.946838586;255.0211256;269.0852609;18.95602688;0.220960966;5017.696727;0.228331225;1.059407895;19.42891882;18.36588896;6887.726203;483.5059546;2068.820051;4329.154165;0.418930828;0.123725744;0.298958229;0.777266536;0.000645381
NAVIG_396;NAVIG_396;704.6248967;3.696778004;3.461351897;0.235088699;0.939872283;213.6189121;227.5732004;16.71729749;0.179923246;3972.814608;0.186549904;1.00216285;18.21256125;17.10103248;8468.652426;656.865422;2629.341229;5174.139986;0.481981792;0.155277134;0.354010757;0.872577863;0.000492365
NAVIG_397;NAVIG_397;935.5620232;4.48747724;4.238410558;0.248737101;0.950432486;231.1294299;242.9503175;21.98983471;0.222629451;4359.697017;0.229637022;1.272658325;18.70722185;17.74345056;10077.17935;704.6063469;3030.694751;6333.810679;0.611996867;0.180888581;0.4370606;1.135267852;0.000415799
NAVIG_399;NAVIG_399;889.3286084;4.011276062;3.764945888;0.245995777;0.945614727;259.4728587;273.9570577;18.2620343;0.19981541;4769.808417;0.206746989;1.091336665;18.32509429;17.29250491;6156.125643;439.7397551;1864.175768;3843.904331;0.369932305;0.11098535;0.265353132;0.683255515;0.000567635
NAVIG_400;NAVIG_400;794.3298929;3.802378929;3.546973312;0.255072637;0.938461403;255.2453517;271.6017815;15.82679834;0.176280341;5139.424943;0.183465847;0.860612833;19.69991157;18.47878419;8370.660145;633.517174;2581.257944;5147.81745;0.484019908;0.152932007;0.353341672;0.881099743;0.00055165
NAVIG_401;NAVIG_401;854.4569517;3.9054554;3.671090959;0.234031461;0.94498622;257.2723295;272.0051713;18.84641361;0.177719022;5186.676701;0.184315375;1.015470495;19.88826972;18.78429367;8917.303684;718.5080613;2805.153386;5385.336447;0.493744211;0.164852741;0.36711611;0.884219434;0.000445376
NAVIG_403;NAVIG_403;936.1890165;4.291618762;4.031397021;0.259890355;0.946044458;247.675342;261.6601593;18.71977514;0.202116848;4993.138675;0.209436996;1.035942423;19.74634638;18.64927524;7379.756338;536.8106256;2241.739508;4592.900415;0.438623824;0.133416158;0.31594903;0.807352803;0.000534086
NAVIG_405;NAVIG_405;849.3496288;4.147253764;3.874362426;0.272555336;0.937530461;229.1505537;244.3653216;15.14971949;0.199636368;4427.529128;0.207311869;0.872380511;18.88280906;17.6877704;7210.276852;518.7335138;2183.897294;4499.340255;0.431647477;0.129923322;0.309759429;0.796922079;0.00052235
NAVIG_406;NAVIG_406;1049.254005;4.740593522;4.453596681;0.286662444;0.935238977;248.3988822;266.0096541;16.36686863;0.230481587;4823.524427;0.238551832;0.921317418;19.12480683;17.87617882;9029.823913;659.7120803;2750.333846;5611.472198;0.534017672;0.163763441;0.386062379;0.980448168;0.000485216
NAVIG_407;NAVIG_407;1006.017021;4.598855607;4.304011851;0.294490628;0.936559969;245.1911968;262.0762269;15.70238442;0.229986535;4602.1783;0.238278944;0.922588842;18.54013887;17.34937058;8185.237814;592.3043114;2488.176742;5096.450972;0.487145782;0.14806272;0.351082406;0.896618419;0.000488615
NAVIG_409;NAVIG_409;1046.229305;4.849843635;4.537561547;0.311949108;0.935893048;235.053054;251.4554724;14.795993;0.235204295;4587.377337;0.243982342;0.830888145;19.16795668;17.93615351;9168.388266;727.3972254;2871.332367;5561.352885;0.512851159;0.169202079;0.379958548;0.921614364;0.000536184
NAVIG_411;NAVIG_411;1223.717906;5.918458503;5.556274184;0.361836543;0.941179212;208.2394532;221.2761404;16.30081029;0.315465964;3910.270795;0.325643208;0.974460798;18.32660272;17.22292883;10624.66777;801.0753542;3266.627017;6548.4214;0.615257219;0.194039801;0.449051486;1.120629056;0.000433342
NAVIG_414;NAVIG_414;1090.989641;5.088718762;4.787022021;0.301365355;0.944016635;229.4937403;243.0591615;17.27921893;0.252353061;4439.915551;0.26083451;0.988828316;19.03866887;17.94082644;9805.439684;714.8836942;2985.952687;6096.297513;0.580439864;0.17770477;0.419401526;1.066242885;0.000494517
NAVIG_415;NAVIG_415;915.5497441;4.692719654;4.37077747;0.321634649;0.933993539;213.108243;228.3618488;13.94906665;0.223880709;4339.408952;0.232926594;0.772695878;19.61948477;18.31073566;12123.42084;925.1713199;3741.30982;7448.395703;0.695949929;0.22213533;0.510130005;1.263120062;0.000498914
NAVIG_416;NAVIG_416;943.6740105;4.795925988;4.499326253;0.296266755;0.941227478;210.4429365;223.7739061;16.46714514;0.240083626;4089.445639;0.248422567;0.944817051;18.92975573;17.79445245;10485.84778;761.0004429;3182.135498;6534.406054;0.623358731;0.189406983;0.448908156;1.1480468;0.000511258
NAVIG_418;NAVIG_418;782.2783915;3.850368762;3.622022021;0.228015355;0.950938944;238.0398417;249.865362;21.91657092;0.191911999;4378.542743;0.198339648;1.320697351;18.31061358;17.36458924;9276.778731;662.8352758;2801.115502;5806.581921;0.557397678;0.167224629;0.399872642;1.029978891;0.000566397
NAVIG_420;NAVIG_420;939.8733915;4.465525012;4.152647021;0.312546605;0.93130418;238.1240923;255.9461407;13.29955532;0.213958749;4815.196135;0.222753273;0.722517611;19.63652536;18.29247818;9583.174709;730.0828474;2954.850964;5889.935109;0.552194427;0.174901146;0.403191579;1.004929318;0.000536596
NAVIG_421;NAVIG_421;1018.889305;4.530431871;4.252267429;0.277831461;0.943737121;258.6927981;273.901396;17.23824709;0.215745996;5075.357111;0.223568748;0.9658036;19.45713927;18.33101604;8298.399687;645.1323069;2582.333305;5062.628286;0.470988184;0.152525853;0.346747765;0.851081256;0.000444301
NAVIG_423;NAVIG_423;887.5234497;3.882276855;3.655818904;0.226123555;0.94841959;282.3102673;297.3380394;20.49888675;0.188149886;5230.817505;0.194525043;1.196362011;18.64869828;17.65278877;8736.986987;675.6959589;2712.596465;5340.388775;0.497541359;0.160482787;0.365860076;0.900114578;0.000539672
NAVIG_424;NAVIG_424;910.9842379;4.21023145;3.947117545;0.262767467;0.940028369;250.6840581;266.7231077;16.73038247;0.198439774;4947.883416;0.205842872;0.917216131;19.48951081;18.30810045;9500.484543;709.4721283;2913.70844;5868.998185;0.554232755;0.172891798;0.402798359;1.012872707;0.000479361
NAVIG_426;NAVIG_426;1132.948826;5.152568835;4.845719825;0.306516218;0.94309513;236.4002356;250.5455664;17.546324;0.248647097;4749.332019;0.257272994;0.952397999;19.6424249;18.50789497;7620.969985;615.0787591;2400.040867;4597.54457;0.421980416;0.140723604;0.313453282;0.756067504;0.000483149
NAVIG_430;NAVIG_430;934.6074927;4.182408835;3.953719825;0.228356218;0.954577172;253.2121617;264.7197656;23.26531905;0.198572419;4943.452695;0.205009836;1.308858921;19.3878306;18.45952224;8882.71961;612.5717145;2651.701525;5610.140582;0.54519071;0.158498744;0.38681793;1.016278496;0.000471764
NAVIG_431;NAVIG_431;915.935187;4.273473047;4.025796841;0.247343225;0.944940052;242.0804942;256.3500845;19.42728442;0.205936258;4986.082697;0.21290534;1.097618531;19.89972919;18.71037608;10081.58493;792.4306909;3148.510327;6132.33812;0.567257883;0.185794943;0.419343802;1.021596822;0.000518306
NAVIG_432;NAVIG_432;804.3733915;3.818256262;3.600147021;0.217777855;0.954126238;249.2400494;260.7462903;24.08022247;0.183119605;4816.362;0.189260604;1.378256366;19.09004638;18.1647868;9014.974305;667.4299242;2760.740314;5578.498278;0.528463998;0.163965454;0.383555372;0.967009828;0.000441971
NAVIG_433;NAVIG_433;921.0778941;4.340904633;4.088596681;0.251973555;0.947967335;246.129724;259.5064776;19.14079472;0.210356682;4841.843618;0.217455638;1.071981126;19.40167911;18.3576833;8096.847554;631.211216;2516.440395;4940.890153;0.460027379;0.148132715;0.337500862;0.833320287;0.000518384
NAVIG_434;NAVIG_434;1129.389561;5.222176855;4.923041126;0.298801333;0.945693537;230.6960766;243.924675;18.13480233;0.253622158;4645.10112;0.262032292;0.999764247;19.64539175;18.54951988;6896.81527;474.7186425;2058.287941;4355.502898;0.424714221;0.122704487;0.300388666;0.793229676;0.000512974
NAVIG_437;NAVIG_437;855.9928156;4.097347944;3.834080651;0.262934748;0.943435104;236.6709579;250.7546686;17.88717173;0.202613618;4426.792009;0.210019194;1.056450979;18.54633371;17.4648438;8519.210251;664.3478606;2650.242617;5196.313984;0.483253407;0.156200975;0.355227556;0.874164769;0.000498309
NAVIG_438;NAVIG_438;1050.975672;4.781587967;4.550263348;0.230990221;0.95989021;242.7012145;252.2124246;27.20334542;0.235975669;4684.734558;0.242487092;1.547637205;19.15808627;18.33284969;8813.312972;619.0130694;2649.619303;5536.37481;0.534664124;0.158089993;0.381622568;0.991922065;0.000599099
NAVIG_439;NAVIG_439;705.2750538;3.668050645;3.439767958;0.227956317;0.946710968;215.4345348;227.9233583;19.78468864;0.177469675;4135.556458;0.183894874;1.176798791;18.70043443;17.65592042;7892.931889;630.2814775;2475.802177;4778.542445;0.440071678;0.145689525;0.326245819;0.790083868;0.000538215
NAVIG_440;NAVIG_440;818.8675399;3.966778929;3.699326253;0.267119696;0.936479329;238.8568643;255.2378567;14.85096187;0.193738844;4488.141321;0.201261667;0.882015046;18.55766895;17.35336434;8451.948973;640.8216394;2609.807457;5193.014088;0.487782076;0.154556205;0.356533905;0.887093699;0.000559759
NAVIG_441;NAVIG_441;1168.765672;5.193732411;4.916930015;0.276467999;0.952370088;247.0297224;258.8725586;21.73611232;0.26027031;4774.114067;0.268055111;1.232910115;19.13385202;18.18301356;7427.849158;540.4149146;2262.145197;4616.983256;0.440793395;0.1345036;0.318048028;0.810378804;0.000434416
NAVIG_442;NAVIG_442;845.0690165;3.963168762;3.732647021;0.230190355;0.953003015;253.4245367;265.2779424;23.42413487;0.193698984;4683.527305;0.200187533;1.405593178;18.44634284;17.52928782;6639.778165;436.3826012;1948.259564;4246.83021;0.42065801;0.116507866;0.293090686;0.794733933;0.000581477
NAVIG_443;NAVIG_443;773.8704811;3.703149518;3.480502724;0.222313813;0.950638074;240.0643951;252.2256567;21.139076;0.174695527;4748.500136;0.180963785;1.181649861;19.39176841;18.39945164;8997.457052;735.035803;2847.75029;5406.365169;0.492818862;0.166863924;0.368238986;0.878655862;0.000581823
NAVIG_445;NAVIG_445;844.26766;3.823183278;3.601657959;0.221189505;0.950520236;274.461285;288.089259;20.69196618;0.180259298;5379.184654;0.186496526;1.152547817;19.38695743;18.39164728;7318.346084;502.4402865;2185.251996;4622.348012;0.450675213;0.130359594;0.319125606;0.841194391;0.000477797
NAVIG_447;NAVIG_447;866.4327482;4.235827924;3.950685958;0.284811009;0.934978744;229.9437309;246.1637813;14.18167019;0.204121059;4509.654047;0.212138917;0.801848308;19.12426573;17.87102956;5717.323331;454.3297894;1791.928252;3462.7595;0.320843337;0.105104341;0.236714642;0.57799363;0.00062191
NAVIG_449;NAVIG_449;1007.87845;4.664749078;4.388596681;0.275817999;0.945786272;242.9979884;256.745139;18.49705831;0.239066972;4457.077564;0.246833573;1.119578954;18.24218684;17.21521637;7527.63651;506.3781094;2232.390491;4780.56212;0.469012465;0.13344036;0.330330125;0.879256031;0.000478338
NAVIG_451;NAVIG_451;979.0505817;4.642130488;4.308416185;0.333355823;0.927439805;236.2654189;254.7916003;12.91297872;0.230875886;4517.97816;0.240257369;0.730932816;18.70921751;17.37006123;8483.227872;714.8808371;2705.142701;5055.136756;0.45591447;0.157140626;0.341935632;0.809232899;0.000416879
NAVIG_452;NAVIG_452;990.9372691;4.714110883;4.410124459;0.303652027;0.937239118;232.9681239;248.6603626;15.06183025;0.241835665;4353.451588;0.250381619;0.902551082;18.36599248;17.1897984;6924.814592;505.096574;2111.022335;4300.389894;0.410364894;0.125500818;0.296320771;0.753889908;0.000669515
NAVIG_453;NAVIG_453;1057.827665;5.058241599;4.774943963;0.282939156;0.952582431;224.7367988;235.4717426;21.10645099;0.255901414;4356.420018;0.26387123;1.214531211;18.97977866;18.03352856;8121.03183;578.421572;2450.278572;5083.787685;0.488928147;0.145969806;0.34996769;0.904766818;0.000571129
NAVIG_454;NAVIG_454;665.4342955;3.311613764;3.096362426;0.214915336;0.942421792;243.6633572;258.4454985;17.17011542;0.158966077;4433.281833;0.165027658;1.038946868;18.11318052;17.04409034;8631.309057;643.5735971;2647.911735;5331.517935;0.503735507;0.157294729;0.366405082;0.920012411;0.000556035
NAVIG_455;NAVIG_455;1079.397894;5.021249078;4.683041126;0.337873555;0.93317536;233.2678629;250.2041689;13.56024886;0.256096078;4434.610311;0.265600234;0.796908228;18.6318699;17.37022828;9117.101352;756.0883823;2893.754514;5458.952667;0.494896288;0.168911651;0.370393977;0.880657703;0.000556417
NAVIG_456;NAVIG_456;865.1641768;3.938677924;3.684257387;0.25408958;0.940924059;260.444964;276.7429522;16.29835592;0.186155264;5042.01172;0.193312923;0.924265166;19.23911193;18.07798432;5590.108877;422.580107;1713.924068;3445.298913;0.326801913;0.100462431;0.23523797;0.600747207;0.000544857
NAVIG_457;NAVIG_457;895.1821415;4.513762512;4.252647021;0.260784105;0.946186025;216.6966468;229.0488202;18.48446686;0.227867852;4124.553229;0.235213026;1.087821979;18.76539921;17.71207647;9597.332647;679.4846369;2889.948269;6019.593952;0.579495743;0.172395038;0.414393139;1.073464587;0.000535072
NAVIG_459;NAVIG_459;1189.724599;5.244267165;4.9334439;0.310490284;0.944901341;248.0675106;262.25697;18.0830551;0.260159936;4863.053984;0.268897136;1.017404112;19.2937636;18.19960232;8082.031001;660.1870707;2551.557757;4862.218596;0.444293871;0.149179545;0.330484955;0.794801723;0.000471262
NAVIG_460;NAVIG_460;838.3766441;4.002660883;3.769499459;0.232827027;0.948552618;242.4952568;255.480758;19.64414553;0.193935192;4664.358556;0.200498045;1.130884374;18.99530996;17.97754284;7935.590131;616.800419;2467.973543;4842.510379;0.450720497;0.145784825;0.331622948;0.814797727;0.000582163
NAVIG_462;NAVIG_462;1030.055116;4.506610189;4.215263348;0.291012444;0.93795175;262.1148841;279.2201732;15.56912722;0.22483871;4893.080104;0.233030756;0.912218527;18.55043852;17.38236211;9825.092244;783.7022205;3081.646982;5951.437252;0.547285369;0.181579476;0.406298171;0.981801013;0.00056193
NAVIG_463;NAVIG_463;889.4777663;4.304202628;4.072616331;0.231269634;0.95031388;225.3648199;236.7339815;23.46196697;0.20666242;4568.276235;0.213179365;1.293007117;19.76536256;18.733937;7757.92398;590.6280726;2392.807428;4766.182691;0.447977377;0.141270348;0.32636363;0.816448656;0.000495015
NAVIG_464;NAVIG_464;1094.112954;4.853406808;4.57283443;0.280236564;0.946938187;249.923663;263.5981527;19.25416099;0.23393712;5013.047456;0.241827666;1.041634611;19.74082396;18.66878233;7791.823326;570.2342535;2375.514297;4837.768986;0.460613078;0.14132719;0.332989641;0.845507508;0.000581863
NAVIG_465;NAVIG_465;1007.844011;4.520931871;4.228738018;0.291860872;0.937283883;249.8754998;266.6921774;14.97684455;0.218168965;4826.791097;0.226384541;0.853471159;19.07821827;17.86168429;7328.51931;546.0995165;2243.419883;4532.753877;0.429879632;0.132973007;0.311196895;0.787816027;0.000627092
NAVIG_466;NAVIG_466;1175.781466;5.20499749;4.89780303;0.306860063;0.942826653;240.0793677;254.5147087;17.23440787;0.263700841;4537.411293;0.27233662;1.005327937;18.69411112;17.5985947;8948.103796;697.5365365;2787.356135;5454.905336;0.506665936;0.164596143;0.373464099;0.914693032;0.000544024
NAVIG_467;NAVIG_467;894.7635748;4.193900759;3.937786162;0.255801295;0.940768923;234.241029;248.5872103;17.50083683;0.200365922;4608.498892;0.207569287;0.989520033;19.25940824;18.08875918;7632.12868;582.5851417;2333.636202;4707.601547;0.445941936;0.135526975;0.318390965;0.824446405;0.000595696
NAVIG_468;NAVIG_468;901.2774762;4.306186028;3.997414886;0.308845752;0.933897804;236.3750664;252.5649471;15.45688626;0.215020121;4533.256855;0.223658004;0.912547665;18.82043602;17.54941354;8210.364314;674.2508076;2602.958698;4924.849019;0.448387658;0.152253263;0.33522045;0.798823265;0.000634419
NAVIG_469;NAVIG_469;945.7736797;4.49802676;4.248459478;0.249657975;0.945952732;242.9491355;256.8713855;18.26260392;0.223465469;4586.480891;0.230443741;1.061154604;18.72859234;17.70027532;8543.330547;666.3247824;2657.546504;5213.213227;0.485586485;0.156374095;0.356291422;0.879691615;0.000478499
